128431
129956
130086
129128
130203
129155
129155
130395
129194
129194
129194
130632
129269
129269
129269
130898
129544
129544
130987
129949
129949
129949
131071
130209
130209
131041
130338
130338
130338
131071
130037
130037
130037
131045
129542
129542
131134
129600
129600
129600
130495
129948
129948
129948
129948
130185
130185
130008
130250
130250
130250
130043
130203
130203
130074
130073
130073
130073
130028
129914
129914
129914
129970
129992
129992
130102
130103
130103
130103
130460
130188
130188
130188
130872
130240
130240
131166
130234
130234
130234
131341
130265
130265
130265
131471
130394
130394
131586
130738
130738
130738
131616
130976
130976
130976
131592
130719
130719
131609
130155
130155
130155
131643
131553
128431
128431
128431
130727
129956
129956
129956
130375
130086
130086
130448
130203
130203
130203
130560
130395
130395
130395
130632
130632
130632
130870
130898
130898
130898
130909
130987
130987
130987
131071
131071
131071
130927
131041
131041
131041
131094
131071
131071
131223
131045
131045
131045
131258
131134
131134
131134
131271
130495
130495
131219
129948
129948
129948
131277
130008
130008
130008
130043
130043
130043
131386
130074
130074
130074
131203
130028
130028
130429
129970
129970
129970
130098
130102
130102
130102
130222
130432
130582
130599
130508
130439
130450
131616
130598
131592
131592
130815
131609
131609
131609
131028
131643
131643
131222
131553
131553
131553
131389
130727
130727
131517
130375
130375
130375
131574
130448
130448
130448
131665
130560
130560
131691
130654
130654
130654
131813
130870
130870
131753
130909
130909
130909
130913
130857
130857
130031
130927
130927
130927
129982
131094
131094
130114
131223
131223
131223
130092
131258
131258
131258
130169
131271
131271
130158
131219
131219
131219
130080
130046
130185
130508
130706
130851
130098
130098
130790
130222
130222
130651
130432
130432
130432
130821
130582
130582
130582
131078
130599
130599
131346
130508
130508
130508
131388
130439
130439
130439
131494
130450
130450
131505
130598
130598
130598
131496
130815
130815
131398
131028
131028
131028
131349
131222
131222
130610
131389
131389
131389
129979
131517
131517
131517
129896
131574
131574
129936
131665
131665
131665
130001
131691
131691
130150
131813
131813
131813
130238
131753
131753
130310
130913
130913
130913
130352
130474
130662
130853
131073
131124
130158
130158
131315
130080
130080
130080
131372
130046
130046
131407
130185
130185
130185
131503
130508
130508
130508
131490
130706
130706
131605
130851
130851
130851
131677
130790
130790
130790
131717
130651
130651
131841
130821
130821
130821
131699
131078
131078
130959
131346
131346
131346
130439
131388
131388
130527
131494
131494
131494
130722
131505
131505
131505
130943
131496
131496
131029
131398
131398
130909
131349
131349
131349
130663
130610
130610
130589
129979
129979
129979
130613
130674
130770
130907
130999
131085
131102
130352
131165
130474
130474
130474
131242
130662
130662
130662
131379
130853
130853
131417
131073
131073
131073
131466
131124
131124
131124
131597
131315
131315
131506
131372
131372
131372
130866
131407
131407
130359
131503
131503
131503
130413
131490
131490
130657
131605
131605
131605
130826
131677
131677
131677
131027
131717
131717
130953
131841
131841
131841
130765
131699
131699
130681
130959
130959
130959
130659
130439
130439
130780
130527
130527
130527
130998
131160
131256
131352
131397
131437
131531
130613
131604
130674
130674
131589
130770
130770
130770
131492
130907
130907
130907
131467
130999
130999
131448
131085
131085
131085
131333
131102
131102
131102
131165
131165
131165
130081
131242
131242
131242
130002
131379
131379
130138
131417
131417
131417
130132
131466
131466
130175
131597
131597
131597
130189
131506
131506
131506
130136
130866
130866
130092
130359
130359
130359
130121
130413
130413
130269
130657
130657
130657
130436
130826
130826
130721
130780
130859
130844
130990
130659
130659
131167
130780
130780
130780
131279
130998
130998
130998
131451
131160
131160
131502
131256
131256
131256
131681
131352
131352
131352
131831
131397
131397
131793
131437
131437
131437
131238
131531
131531
131531
130712
131604
131604
130703
131589
131589
131589
130953
131492
131492
131127
131467
131467
131467
131338
131448
131448
131414
131333
131333
131333
131422
130581
130581
131409
130081
130081
130081
131420
130002
130002
130002
131511
130138
130138
131599
130132
130132
130132
130175
130175
130175
131541
131531
131586
131629
131651
130269
131634
130436
130436
130436
131637
130721
130721
130721
131302
130780
130780
130585
130859
130859
130859
130270
130844
130844
130844
130328
130990
130990
130414
131167
131167
131167
130516
131279
131279
131279
130647
131451
131451
130593
131502
131502
131502
130528
131681
131681
130556
131831
131831
131831
130702
131793
131793
130873
131238
131238
131238
130967
130712
130712
130712
131042
130703
130703
131048
130953
130953
130953
131122
131127
131127
131180
131338
131338
131338
131229
131414
131414
131414
131176
130513
129960
129879
129967
130040
131516
131516
131516
130224
131541
131541
131541
130329
131531
131531
130304
131586
131586
131586
130276
131629
131629
130374
131651
131651
130562
131634
131634
131634
130682
131637
131637
131637
130793
131302
131302
130846
130585
130585
130585
130943
130270
130270
130934
130328
130328
130328
131043
130414
130414
131141
130516
130516
130516
131161
130647
130647
130647
130647
130593
130593
131329
130528
130528
130528
131107
130556
130556
130253
130702
130702
130702
129818
130873
130873
129770
129878
129982
130122
130156
130077
131229
131229
130042
131176
131176
130058
130513
130513
130513
130190
129960
129960
129960
130292
129879
129879
130309
129967
129967
129967
130425
130040
130040
130040
130525
130224
130224
130562
130329
130329
130329
130652
130304
130304
130707
130276
130276
130276
130817
130374
130374
130872
130562
130562
130934
130682
130682
130682
131007
130793
130793
131109
130846
130846
130846
131073
130943
130943
130499
130934
130934
130934
129804
131043
131043
131043
131141
131141
131141
129741
129808
129912
130030
129998
130253
130013
129818
129818
129818
130056
129770
129770
130166
129878
129878
129878
130251
129982
129982
129982
130350
130122
130122
130392
130156
130156
130156
130505
130077
130077
130077
130581
130042
130042
130576
130058
130058
130058
130597
130190
130190
130190
130553
130292
130292
130551
130309
130309
130309
130662
130425
130425
130778
130525
130525
130525
130903
130562
130562
131099
130652
130652
130652
131256
130707
130707
131200
130817
130817
130817
130416
130872
130872
130872
129757
130934
130934
129540
129591
129638
129737
129883
129804
129804
129912
129604
129604
129604
129931
129741
129741
130042
129808
129808
129808
130218
129912
129912
129912
130411
130030
130030
130595
129998
129998
129998
130713
130013
130013
130013
130849
130056
130056
130911
130166
130166
130166
131050
130251
130251
130251
130350
130350
130350
131306
130392
130392
130392
131397
130505
130505
131452
130581
130581
130581
131539
130576
130576
131626
130597
130597
130597
131675
130553
130553
130553
131682
130551
130551
131070
130662
130662
130662
130309
130778
130778
130191
130283
130490
130744
130835
130416
130744
129757
129757
129757
130650
129540
129540
129540
130668
129591
129591
130716
129638
129638
129638
130864
129737
129737
129737
130935
129883
129883
130978
129912
129912
129912
131069
129931
129931
129931
131155
130042
130042
131146
130218
130218
130218
131229
130411
130411
131290
130595
130595
130595
131389
130713
130713
131402
130849
130849
130849
131518
130911
130911
131290
131050
131050
131050
130508
131144
131144
131144
130134
131306
131306
130114
131397
131397
131397
130263
131452
131452
130380
130451
130409
130364
130394
131070
130503
130309
130309
130309
130609
130191
130191
130673
130283
130283
130283
130686
130490
130490
130490
130744
130744
130744
130848
130835
130835
130835
130948
130744
130744
131044
130650
130650
130650
131047
130668
130668
130668
131090
130716
130716
131101
130864
130864
130864
131155
130935
130935
131189
130978
130978
130978
131164
131069
131069
131069
130580
131155
131155
130010
131146
131146
131146
129870
131229
131229
129866
131290
131290
131290
129912
131389
131389
129951
131402
131402
131402
130044
130007
129970
129992
130107
130114
130183
130263
130263
130263
130227
130380
130380
130273
130451
130451
130451
130313
130409
130409
130409
130375
130364
130364
130423
130394
130394
130394
130566
130503
130503
130503
130651
130609
130609
130747
130673
130673
130673
130774
130686
130686
130826
130682
130682
130682
130887
130848
130848
130923
130948
130948
130948
131022
131044
131044
131044
130687
131047
131047
130045
131090
131090
131090
129822
131101
131101
129826
131155
131155
131155
129842
131189
131189
129904
131164
131164
131164
129995
130031
130012
130046
130152
129912
130262
129951
129951
130338
130044
130044
130044
130422
130007
130007
130522
129970
129970
129970
130583
129992
129992
129992
130639
130107
130107
130648
130183
130183
130183
130634
130227
130227
130227
130605
130273
130273
130595
130313
130313
130313
130690
130375
130375
130700
130423
130423
130423
130796
130566
130566
130848
130651
130651
130651
130610
130747
130747
130747
130002
130774
130774
129747
130826
130826
130826
129727
130887
130887
129779
130923
130923
130923
129841
131022
131022
129926
130687
129965
129921
129952
130050
129842
130123
129904
129904
130193
129995
129995
129995
130150
130031
130031
130172
130012
130012
130012
130215
130046
130046
130046
130269
130152
130152
130304
130262
130262
130262
130471
130338
130338
130338
130602
130422
130422
130519
130522
130522
130522
130009
130583
130583
129664
130639
130639
130639
129710
130648
130648
129725
130634
130634
129839
130605
130605
130605
129992
130595
130595
129983
130690
130690
130690
129970
130700
130700
129964
130796
130796
130796
130044
130848
130848
130136
130610
130208
130256
130300
130336
129779
130392
129841
129841
129841
130522
129926
129926
130526
129965
129965
129965
130136
129921
129921
129921
129715
129952
129952
129617
130050
130050
130050
129659
130123
130123
130123
129750
130193
130193
129857
130150
130150
130150
129913
130172
130172
130172
129867
130215
130215
129920
130269
130269
130269
130028
130304
130304
130118
130471
130471
130471
130204
130602
130602
130199
130519
130519
130519
130306
130009
130009
130398
129664
129664
129664
130414
129710
129710
129710
130459
129725
129725
130554
129839
130627
130712
130773
130817
129964
130797
130044
130044
130044
130902
130136
130136
130747
130208
130208
130208
130001
130256
130256
130256
129669
130300
130300
129689
130336
130336
130336
129693
130392
130392
130392
129725
130522
130522
129807
130526
130526
130526
129889
130136
130136
130136
129715
129715
129715
129909
129617
129617
129617
130027
129659
129659
130111
129750
129750
129750
130223
129857
129857
130300
129913
129913
129913
130325
129867
129867
130410
129920
129920
129920
130470
130028
130028
130507
130118
130118
130118
130624
130204
130730
130817
130921
131025
130414
131104
130459
130459
131192
130554
130554
130554
131232
130627
130627
130627
131173
130712
130712
130501
130773
130773
130773
129927
130817
130817
130817
130797
130797
130797
129920
130902
130902
130902
130004
130747
130747
130088
130001
130001
130001
130179
129669
129669
129669
130147
129689
129689
130102
129693
129693
129693
130191
129725
129725
130270
129807
129807
129807
130416
129889
129889
130468
129793
129793
129793
130523
129909
129909
130585
130027
130027
130027
130616
130111
130111
130693
130223
130754
130807
130874
130948
130982
130507
131038
130624
130624
131117
130730
130730
130730
131159
130817
130817
130844
130921
130921
130921
130083
131025
131025
131025
129855
131104
131104
129867
131192
131192
131192
129949
131232
131232
131232
130010
131173
131173
130058
130501
130501
130501
130092
129927
129927
130098
129830
129830
129830
130126
129920
129920
129920
130246
130004
130004
130434
130088
130088
130088
130555
130179
130179
130677
130147
130147
130147
130752
130102
130102
130779
130191
130191
130191
130940
130270
131040
131108
131166
131226
130585
131249
130616
130616
130616
131332
130693
130693
130693
131348
130754
130754
131019
130807
130807
130807
130329
130874
130874
130874
130948
130948
130948
130166
130982
130982
130982
130313
131038
131038
130516
131117
131117
131117
130614
131159
131159
131159
130601
130844
130844
130525
130083
130083
130083
130609
129855
129855
130751
129867
129867
129867
130812
129949
129949
129949
130010
130010
130010
130913
130058
130058
130058
130987
130092
130092
131069
130098
130098
130098
131104
130126
130126
131181
130246
131289
131335
131417
131353
130752
130752
131036
130779
130779
130779
130266
130940
130940
130033
131040
131040
131040
130098
131108
131108
131108
130182
131166
131166
130234
131226
131226
131226
130374
131249
131249
131249
130417
131332
131332
130391
131348
131348
131348
130408
131019
131019
130481
130329
130329
130329
130568
130014
130014
130014
130595
130166
130166
130614
130313
130313
130313
130665
130516
130516
130670
130614
130614
130614
130802
130601
130601
130925
130525
130525
130525
131053
130609
130609
131101
130751
130751
130751
131216
130812
131291
131324
130908
130148
131069
129902
131104
131104
131104
129961
131181
131181
131181
131289
131289
131289
130079
131335
131335
131335
130198
131417
131417
130200
131353
131353
131353
130183
131036
131036
131036
130229
130266
130266
130357
130033
130033
130033
130442
130098
130098
130098
130529
130182
130182
130588
130234
130234
130234
130702
130374
130374
130800
130417
130417
130417
130794
130391
130391
130765
130408
130408
130408
130881
130481
130481
130481
130951
130568
130568
130960
130595
130595
130595
131086
130614
130614
131163
130665
131179
131226
130789
130052
131053
131053
129841
131101
131101
129838
131216
131216
131216
129942
131291
131291
131291
130044
131324
131324
130074
130908
130908
130908
130136
130148
130148
130148
130138
129902
129902
130139
129961
129961
129961
130196
129992
129992
130298
130079
130079
130079
130311
130198
130198
130198
130347
130200
130200
130372
130183
130183
130183
130460
130229
130229
130445
130357
130357
130357
130619
130442
130442
130724
130529
130529
130529
130843
130588
130588
130588
130946
130702
130702
130980
130800
130800
130800
131055
130794
131177
131249
130807
130111
130960
129965
131086
131086
130047
131163
131163
131163
130116
131179
131179
130251
131226
131226
131226
130363
130789
130789
130789
130410
130052
130052
130451
129841
129841
129841
130533
129838
129838
129838
130674
129942
129942
130735
130044
130044
130044
130850
130074
130074
130869
130136
130136
130136
130913
130138
130138
130852
130139
130139
130139
130946
130196
130196
131008
130298
130298
130298
131080
130311
130311
130311
131147
130347
130347
131179
130372
130372
130372
131274
130460
130460
131207
130445
130445
130622
130039
129923
130004
130135
130282
131055
131055
131055
130341
131177
131177
130275
131249
131249
131249
130268
130807
130807
130807
130326
130111
130111
130382
129965
129965
129965
130378
130047
130047
130462
130116
130116
130116
130459
130251
130251
130482
130363
130363
130363
130505
130410
130410
130410
130560
130451
130451
130607
130533
130533
130533
130745
130674
130674
130800
130735
130735
130735
130923
130850
130850
131011
130869
130869
130869
131016
130913
130913
130913
130852
130852
130852
130000
130946
130946
129723
129734
129751
129775
129866
131274
129968
131207
131207
131207
129909
130622
130622
130622
129892
130039
130039
129974
129923
129923
129923
130061
130004
130004
130136
130135
130135
130135
130124
130282
130282
130282
130132
130341
130341
130206
130275
130275
130275
130244
130268
130268
130297
130326
130326
130326
130376
130382
130382
130382
130378
130378
130378
130593
130462
130462
130655
130459
130459
130459
130708
130482
130482
130482
130505
130505
130505
130715
130560
130560
130560
130560
130607
130607
129728
130745
130745
129366
129386
129431
129457
129527
129566
129509
129495
129623
129751
129722
129775
129775
129775
129777
129866
129866
129866
129844
129968
129968
129870
129909
129909
129909
129960
129892
129892
129892
130004
129974
129974
130076
130061
130061
130061
130133
130136
130136
130216
130124
130124
130124
130308
130132
130132
130349
130206
130206
130206
130434
130244
130244
130503
130297
130297
130297
130620
130376
130376
130425
130416
130416
130416
129771
130593
130593
129427
129530
129687
129793
129893
130560
130560
129886
129728
129728
129728
129891
129366
129366
129366
129904
129386
129386
130015
129431
129431
129431
130084
129457
129457
129457
130147
129527
129527
130142
129566
129566
129566
130140
129509
129509
129509
130182
129495
129495
130135
129623
129623
129623
130148
129722
129722
130222
129777
129777
129777
130234
129844
129844
130250
129870
129870
129870
130276
129960
129960
129960
130295
130004
130004
129988
130076
130076
130076
129402
130133
130133
129111
130216
130216
130216
129049
130308
130308
129094
129130
129210
129191
129162
130425
130425
130425
129209
129771
129771
129240
129427
129427
129427
129352
129530
129530
129530
129427
129687
129687
129458
129793
129793
129793
129518
129893
129893
129893
129572
129886
129886
129654
129891
129891
129891
129674
129904
129904
129904
130015
130015
130015
129840
130084
130084
130084
129946
130147
130147
129951
130142
130142
129988
130140
130140
130140
130072
130182
130182
130182
129577
130135
130135
128915
130148
130148
130148
128769
130222
130222
128801
130234
130234
130234
128851
130250
130250
128848
128976
128964
128923
128910
129111
128995
129049
129049
129049
129094
129094
129094
129209
129130
129130
129130
129275
129210
129210
129266
129191
129191
129191
129362
129162
129162
129162
129393
129209
129209
129405
129240
129240
129240
129502
129352
129352
129352
129427
129427
129427
129678
129458
129458
129458
129758
129518
129518
129760
129572
129572
129572
129851
129654
129654
129930
129674
129674
129674

